"Time (s)","X (rad/s)","Y (rad/s)","Z (rad/s)"
1.182766666E-2,-2.968358994E-1,-8.189092278E-1,-2.503902316E-1
2.175966662E-2,-4.541358948E-1,-1.020398617E0,-2.097164243E-1
3.169066668E-2,-5.503398776E-1,-1.221228600E0,-1.270471066E-1
4.162266664E-2,-5.903680921E-1,-1.423767328E0,-1.505311485E-2
5.155366671E-2,-5.962520838E-1,-1.659829378E0,1.025408953E-1
6.148466666E-2,-6.132966280E-1,-1.886476755E0,1.964568943E-1
7.141666661E-2,-6.923720241E-1,-2.006127834E0,2.410326153E-1
8.134766668E-2,-7.773802876E-1,-2.046769619E0,2.758523524E-1
9.127966664E-2,-8.744647503E-1,-2.085521221E0,2.774555683E-1
1.012106667E-1,-9.652887583E-1,-2.157191992E0,2.432426959E-1
1.111426667E-1,-1.048063278E0,-2.187389612E0,1.843042672E-1
1.210736666E-1,-1.127892017E0,-2.088786364E0,9.202913195E-2
1.310056667E-1,-1.212280035E0,-1.894695163E0,6.375211757E-3
1.409366666E-1,-1.293008924E0,-1.685901046E0,-6.505426764E-2
1.508676667E-1,-1.351576567E0,-1.511796117E0,-1.092949659E-1
1.607996667E-1,-1.363818407E0,-1.389313579E0,-1.465976834E-1
1.707306666E-1,-1.310171962E0,-1.299245238E0,-1.919188201E-1
1.806626667E-1,-1.202243209E0,-1.192285657E0,-2.468625754E-1
1.905936666E-1,-1.054329991E0,-1.040144086E0,-3.039226830E-1
2.005256667E-1,-8.981515765E-1,-8.775855303E-1,-3.399913311E-1
2.104566667E-1,-7.400759459E-1,-7.592461109E-1,-3.659129441E-1
2.203876667E-1,-5.885961652E-1,-7.016887665E-1,-3.761912584E-1
2.303196667E-1,-4.603583217E-1,-6.774521470E-1,-3.668217063E-1
2.402506666E-1,-3.788558543E-1,-6.450937986E-1,-3.317245245E-1
2.501826667E-1,-3.296116292E-1,-6.307364106E-1,-2.795452178E-1
2.601136666E-1,-3.211509883E-1,-6.394139528E-1,-2.183563113E-1
2.700456666E-1,-3.381491601E-1,-6.749203205E-1,-1.809415519E-1
2.799766667E-1,-3.540843427E-1,-7.443059683E-1,-1.604152620E-1
2.899076666E-1,-3.637588024E-1,-7.882854342E-1,-1.156027988E-1
2.998396667E-1,-3.735200465E-1,-7.554500699E-1,-6.604423374E-2
3.097706666E-1,-3.959582448E-1,-7.417859435E-1,-4.313865304E-2
3.197026667E-1,-4.119827747E-1,-7.946887016E-1,-2.593295276E-2
3.296336667E-1,-4.217890799E-1,-8.470776081E-1,-8.875939064E-3
3.395656666E-1,-4.112097025E-1,-8.685583472E-1,1.242774539E-2
3.494966667E-1,-3.708662689E-1,-8.708089590E-1,4.697453976E-2
3.594286666E-1,-3.121795058E-1,-8.510469794E-1,1.088118032E-1
3.693596667E-1,-2.605519891E-1,-7.673280835E-1,1.717745364E-1
3.792906667E-1,-2.143751234E-1,-5.745180845E-1,2.438587546E-1
3.892226666E-1,-1.881200820E-1,-2.242319733E-1,3.494560122E-1
3.991536667E-1,-2.182974368E-1,2.092156857E-1,4.366585612E-1
4.090856666E-1,-3.159161210E-1,4.774881601E-1,4.413462579E-1
4.190166667E-1,-4.506743550E-1,4.344517589E-1,3.710027039E-1
4.289486667E-1,-5.874101520E-1,2.221038193E-1,2.560537457E-1
4.388796666E-1,-6.837306619E-1,5.142559111E-2,1.532330662E-1
4.488106667E-1,-7.043504715E-1,-2.316733822E-3,1.147863418E-1
4.587426666E-1,-6.608552337E-1,3.473714367E-2,1.326666325E-1
4.686736667E-1,-5.613238811E-1,6.349129230E-2,1.939696670E-1
4.786056667E-1,-4.348762929E-1,4.868550226E-2,2.679874301E-1
4.885366666E-1,-3.178245127E-1,4.167206585E-2,3.409178555E-1
4.984686667E-1,-2.162719369E-1,5.202993006E-2,4.126194417E-1
5.083996666E-1,-1.718887538E-1,9.462054074E-2,4.667197168E-1
5.183306667E-1,-1.636503339E-1,9.359449148E-2,4.843653440E-1
5.282626667E-1,-1.858616322E-1,-1.151861250E-2,4.658840597E-1
5.381936666E-1,-2.180977464E-1,-1.451056600E-1,4.273960292E-1
5.481256667E-1,-2.355076373E-1,-2.384915352E-1,3.835854232E-1
5.580566666E-1,-2.366618961E-1,-2.682507932E-1,3.539301753E-1
5.679886667E-1,-2.213029116E-1,-2.486440539E-1,3.299728930E-1
5.779196667E-1,-2.006692290E-1,-2.099514306E-1,3.037293553E-1
5.878516666E-1,-1.770802736E-1,-1.487005800E-1,2.812395096E-1
5.977826667E-1,-1.679095626E-1,-5.578507110E-2,2.618103921E-1
6.077136666E-1,-1.770703048E-1,1.715598255E-2,2.134455144E-1
6.176456667E-1,-1.977000535E-1,2.354389802E-2,1.361644864E-1
6.275766667E-1,-2.133298665E-1,-4.955122713E-3,5.089005828E-2
6.375086666E-1,-2.066942751E-1,-2.300395817E-2,-1.196724549E-2
6.474396667E-1,-1.729472280E-1,-1.251616329E-2,-2.964664064E-2
6.573716666E-1,-1.085376963E-1,-3.761232365E-3,-1.367815677E-2
6.673026667E-1,-3.927447274E-2,1.287313737E-2,1.258513890E-2
6.772336666E-1,2.480187081E-2,5.674583837E-2,2.767010592E-2
6.871656667E-1,7.271319628E-2,1.221924871E-1,2.301143855E-2
6.970966667E-1,8.850085735E-2,1.713355035E-1,-1.127570868E-4
7.070286666E-1,7.560610026E-2,1.718705297E-1,-3.381612524E-2
7.169596667E-1,4.504249245E-2,1.394885033E-1,-6.517975032E-2
7.268916667E-1,8.306317031E-3,9.913468361E-2,-7.638712972E-2
7.368226667E-1,-1.475196704E-2,5.014677718E-2,-7.115624845E-2
7.467546667E-1,-2.615935169E-2,1.540770568E-2,-5.044351518E-2
7.566856666E-1,-2.857911587E-2,9.666016325E-3,-3.072441369E-2
7.666166667E-1,-2.627974190E-2,2.554777823E-2,-1.979959384E-2
7.765486666E-1,-1.888500154E-2,4.623306543E-2,-2.254217491E-2
7.864796667E-1,-1.108513493E-2,6.478624046E-2,-3.196070716E-2
7.964116667E-1,5.368473474E-3,8.615048975E-2,-3.819710761E-2
8.063426666E-1,1.988296770E-2,1.054251194E-1,-3.520264477E-2
8.162746667E-1,1.385725383E-2,1.230383590E-1,-3.045268171E-2
8.262056666E-1,-1.275464892E-2,1.223262325E-1,-2.571625076E-2
8.361366667E-1,-4.945829883E-2,1.190428361E-1,-2.251388878E-2
8.460686667E-1,-8.225352317E-2,1.137061268E-1,-1.584000513E-2
8.559996666E-1,-1.044888273E-1,9.442242980E-2,-2.318516374E-3
8.659316667E-1,-1.124841720E-1,5.243770033E-2,1.003961638E-2
8.758626666E-1,-1.121062934E-1,2.086805180E-2,2.109372057E-2
8.857946667E-1,-1.056715623E-1,3.322458640E-2,2.163913473E-2
8.957257917E-1,-9.697647393E-2,5.951935798E-2,1.414327882E-2
9.056577916E-1,-8.137168735E-2,7.169240713E-2,-6.396621466E-4
9.155887917E-1,-6.265173852E-2,8.533845842E-2,-1.778237149E-2
9.255197917E-1,-3.300462663E-2,9.800179303E-2,-3.067073971E-2
9.354517916E-1,1.211796189E-3,9.519574046E-2,-4.347736388E-2
9.453827917E-1,3.849072754E-2,7.962929457E-2,-5.610900000E-2
9.553147916E-1,6.761001050E-2,4.670481756E-2,-6.166487932E-2
9.652457917E-1,9.245809913E-2,3.028177656E-3,-6.264065951E-2
9.751777917E-1,1.130708084E-1,-1.536535285E-2,-5.776617676E-2
9.851087916E-1,1.217322052E-1,-6.380113773E-3,-5.410912260E-2
9.950397917E-1,1.225406006E-1,5.351960659E-3,-5.730104446E-2
1.004971792E0,1.165961623E-1,3.990286496E-3,-5.956233293E-2
1.014902792E0,1.092933118E-1,3.135874635E-3,-6.403371692E-2
1.024834792E0,9.890778363E-2,-1.845543738E-4,-5.470013618E-2
1.034765792E0,8.469215035E-2,7.746450137E-4,-4.468486458E-2
1.044697792E0,5.958893150E-2,-5.739979446E-3,-3.347881511E-2
1.054628792E0,2.728866041E-2,-3.723882139E-2,-3.715196252E-2
1.064559792E0,-3.943559714E-3,-6.055453047E-2,-6.164479256E-2
1.074491792E0,-2.752898633E-2,-8.518422395E-2,-8.579054475E-2
1.084422792E0,-4.366401583E-2,-1.370144039E-1,-1.055461392E-1
1.094354792E0,-3.518262133E-2,-1.607703269E-1,-1.141227111E-1
1.104285792E0,-5.780525040E-3,-1.235537082E-1,-1.130265519E-1
1.114217792E0,2.684674039E-2,-2.107409015E-2,-9.314316511E-2
1.124148792E0,5.053396150E-2,1.059637517E-1,-5.691006035E-2
1.134080792E0,6.401234120E-2,2.235125303E-1,-7.096848451E-3
1.144011792E0,6.510823220E-2,3.549022377E-1,5.074115098E-2
1.153942792E0,4.539423808E-2,4.270379543E-1,9.334885329E-2
1.163874792E0,2.259018365E-3,3.918583989E-1,1.071914360E-1
1.173805792E0,-6.262487918E-2,2.455242872E-1,8.854146302E-2
1.183737792E0,-1.260408610E-1,7.013808936E-2,6.114339083E-2
1.193668792E0,-1.700735837E-1,-6.368167698E-2,4.081628099E-2
1.203600792E0,-1.905919015E-1,-1.538541764E-1,4.609280080E-2
1.213531792E0,-1.942650676E-1,-2.191550136E-1,5.425833911E-2
1.223462792E0,-1.797444522E-1,-2.780857086E-1,6.700662524E-2
1.233394792E0,-1.569659561E-1,-3.008151054E-1,7.490243763E-2
1.243325792E0,-1.377371401E-1,-2.481819838E-1,7.056947798E-2
1.253257792E0,-1.321654916E-1,-1.629078984E-1,6.596558541E-2
1.263188792E0,-1.364374608E-1,-9.014741331E-2,6.600846350E-2
1.273120792E0,-1.483275890E-1,-4.240702093E-2,7.031769305E-2
1.283051792E0,-1.609626859E-1,1.237366907E-2,8.199672401E-2
1.292982792E0,-1.655466557E-1,6.183508784E-2,9.416228533E-2
1.302914792E0,-1.741430759E-1,8.679183573E-2,1.017775983E-1
1.312845792E0,-1.611813158E-1,7.262290269E-2,1.010294110E-1
1.322777792E0,-1.400794834E-1,2.851801924E-2,9.195175767E-2
1.332708792E0,-9.934392571E-2,-4.220253974E-2,7.720954716E-2
1.342640792E0,-4.845890775E-2,-1.039647087E-1,4.845858738E-2
1.352571792E0,1.109698508E-2,-1.388054639E-1,2.318468131E-2
1.362503792E0,6.437565386E-2,-1.477771252E-1,-1.100577973E-2
1.372434792E0,1.032788232E-1,-1.551891416E-1,-3.985740989E-2
1.382365792E0,1.290835291E-1,-1.655461788E-1,-6.077734008E-2
1.392297792E0,1.345413029E-1,-1.588148922E-1,-7.095125318E-2
1.402228792E0,1.258996129E-1,-1.315118968E-1,-6.225017086E-2
1.412160792E0,1.076026037E-1,-8.832813799E-2,-4.283070937E-2
1.422091792E0,8.237288147E-2,-5.547804385E-2,-1.907105371E-2
1.432023792E0,5.064818263E-2,-4.646166041E-2,3.050440457E-3
1.441954792E0,2.095207199E-2,-1.653172821E-2,1.920650713E-2
1.451885792E0,-7.829723880E-3,6.314092875E-2,2.406616323E-2
1.461817792E0,-4.046756029E-2,1.495791376E-1,2.092922479E-2
1.471748792E0,-6.902149320E-2,1.845281422E-1,1.679767668E-2
1.481680792E0,-8.580154181E-2,1.814213097E-1,9.274780750E-3
1.491611792E0,-9.238237888E-2,1.622598916E-1,6.567911711E-3
1.501543792E0,-8.816206455E-2,1.365675777E-1,3.703149501E-3
1.511474792E0,-7.616690546E-2,1.194712520E-1,1.995963976E-3
1.521405792E0,-6.091737747E-2,9.930765629E-2,-5.435320549E-3
1.531337792E0,-3.640208766E-2,3.464169055E-2,-9.125055745E-3
1.541268792E0,1.734908321E-3,-5.624640360E-2,-4.207794555E-3
1.551200792E0,4.808508977E-2,-8.462141454E-2,7.436829619E-4
1.561131792E0,9.735117853E-2,-4.336744547E-2,1.660076436E-3
1.571063792E0,1.364092976E-1,3.461308777E-2,-1.201291289E-2
1.580994792E0,1.590544283E-1,1.077269763E-1,-3.817634284E-2
1.590926792E0,1.635230780E-1,1.469172239E-1,-6.445679069E-2
1.600857792E0,1.549631506E-1,1.492152661E-1,-8.465367556E-2
1.610788792E0,1.324449182E-1,1.346444488E-1,-9.245435148E-2
1.620720792E0,9.898950160E-2,1.131071821E-1,-9.547943622E-2
1.630651792E0,5.362100899E-2,7.201702893E-2,-8.687098324E-2
1.640583792E0,1.087620854E-2,-1.096863532E-3,-6.676784158E-2
1.650514792E0,-3.277105838E-2,-6.645017862E-2,-4.083402455E-2
1.660446792E0,-6.614205986E-2,-9.461790323E-2,-1.022871025E-2
1.670377792E0,-9.580831975E-2,-7.315441966E-2,7.063074503E-3
1.680308792E0,-1.156020015E-1,-2.464014851E-2,1.441979036E-2
1.690240792E0,-1.274296790E-1,1.631676592E-2,9.599152952E-3
1.700171792E0,-1.289551407E-1,2.911644988E-2,-2.446589991E-3
1.710103792E0,-1.210883409E-1,3.151164204E-2,-1.964758337E-2
1.720034792E0,-1.005226076E-1,2.871612273E-2,-3.786946461E-2
1.729966792E0,-6.894154847E-2,2.312737331E-2,-5.414968356E-2
1.739897792E0,-3.412019089E-2,1.064300630E-2,-6.008160487E-2
1.749828792E0,8.902546950E-3,-6.484881043E-3,-5.965919793E-2
1.759760792E0,5.287932605E-2,-4.662213847E-3,-5.926984549E-2
1.769691792E0,8.928257972E-2,1.670432463E-2,-5.912831053E-2
1.779623792E0,1.047118753E-1,4.473835602E-2,-6.949466467E-2
1.789554792E0,1.087097749E-1,8.173381537E-2,-7.367587090E-2
1.799486792E0,9.887444973E-2,1.199357957E-1,-7.199488580E-2
1.809417792E0,7.830823958E-2,1.332693845E-1,-6.268481910E-2
1.819349792E0,4.823422432E-2,1.133073792E-1,-6.154499203E-2
1.829280792E0,1.006720588E-2,5.495532975E-2,-5.924396217E-2
1.839211792E0,-2.041267231E-2,4.861269612E-3,-5.531340092E-2
1.849143792E0,-4.761245102E-2,-2.797580883E-2,-4.912192374E-2
1.859074792E0,-5.888454616E-2,-3.887080029E-2,-3.792759776E-2
1.869006792E0,-5.580561608E-2,-3.738350049E-2,-2.491813153E-2
1.878937792E0,-4.241896793E-2,-2.602112293E-2,-1.770043373E-2
1.888869792E0,-2.328943275E-2,-2.996613272E-2,-1.425012294E-2
1.898800833E0,-1.587333390E-3,-3.486874700E-2,-1.664643735E-2
1.908731833E0,1.507674530E-2,-1.624849439E-2,-1.965272427E-2
1.918663833E0,3.020563163E-2,1.704288274E-2,-1.373224985E-2
1.928594833E0,4.207396507E-2,3.497490659E-2,-8.828621358E-3
1.938526833E0,5.588431656E-2,3.931585699E-2,2.342273947E-3
1.948457833E0,6.897795200E-2,3.330695257E-2,1.476506516E-2
1.958389833E0,6.403406709E-2,2.126573399E-2,1.582473703E-2
1.968320833E0,4.203536734E-2,5.611962639E-3,6.743024103E-3
1.978251833E0,1.815267280E-2,-2.701464109E-5,-2.597214654E-3
1.988183833E0,-9.589118883E-3,7.190627512E-3,-9.195629507E-3
1.998114833E0,-3.686761111E-2,9.719831869E-3,-1.116583496E-2
2.008046833E0,-5.072121322E-2,-6.914929021E-3,-1.238620188E-2
2.017977833E0,-5.655326694E-2,-2.292585373E-2,-1.248660218E-2
2.027909833E0,-5.418412760E-2,-3.730301932E-2,-2.037315816E-2
2.037840833E0,-4.478183761E-2,-4.900814593E-2,-2.583343908E-2
2.047771833E0,-2.425963990E-2,-4.567283764E-2,-2.690973133E-2
2.057703833E0,1.357041765E-3,-2.267111465E-2,-2.125610784E-2
2.067634833E0,3.029863536E-2,4.150805064E-3,-1.139766909E-2
2.077566833E0,4.532072693E-2,2.213753015E-2,1.871531364E-3
2.087497833E0,5.865359306E-2,2.502031438E-2,8.487896994E-3
2.097429833E0,5.910100415E-2,7.450109348E-3,4.038820509E-3
2.107360833E0,5.136450380E-2,-1.327079535E-2,-4.456853494E-4
2.117292833E0,3.866788372E-2,-2.742229961E-2,-3.462247550E-3
2.127223833E0,1.990654320E-2,-3.488497436E-2,-5.490808748E-3
2.137154833E0,5.968356505E-3,-2.882042713E-2,-6.424780004E-3
2.147086833E0,-1.295547700E-3,-1.492836140E-2,9.850538336E-4
2.157017833E0,-1.733637648E-3,3.451332450E-4,8.412343450E-3
2.166949833E0,2.641181927E-3,1.120241359E-2,1.670893840E-2
2.176880833E0,7.012228481E-3,6.709660869E-3,2.491999604E-2
2.186812833E0,1.402278524E-2,-4.535608459E-3,3.561810032E-2
2.196743833E0,1.943912171E-2,-6.220933283E-4,4.262833670E-2
2.206674833E0,2.900115773E-2,2.356813522E-3,4.643341526E-2
2.216606833E0,3.546518087E-2,4.210107028E-3,4.700120166E-2
2.226537833E0,3.438943624E-2,1.630893908E-3,4.825784639E-2
2.236469833E0,2.015084773E-2,-2.532958286E-3,3.551914915E-2
2.246400833E0,6.476436276E-3,-1.380252279E-2,2.651407570E-2
2.256332833E0,-7.464412600E-3,-2.194806561E-2,2.414998785E-2
2.266263833E0,-1.336857397E-2,-2.156073600E-2,3.414635733E-2
2.276194833E0,-4.903982393E-3,-2.478608862E-2,4.447782412E-2
2.286126833E0,3.779547056E-3,-2.823149413E-2,5.309372395E-2
2.296057833E0,1.379772788E-3,-2.209424041E-2,4.580331966E-2
2.305989833E0,-1.193015557E-2,1.564928563E-3,3.522844613E-2
2.315920833E0,-2.542519197E-2,2.767269500E-2,2.408072352E-2
2.325852833E0,-3.984428570E-2,4.583760351E-2,2.485416085E-2
2.335783833E0,-4.126641527E-2,3.852403164E-2,3.650096059E-2
2.345714833E0,-3.604390472E-2,1.582344063E-2,5.156052113E-2
2.355646833E0,-1.080219634E-2,-1.858084928E-3,6.729554385E-2
2.365577833E0,1.622788981E-2,6.561075337E-3,6.168525666E-2
2.375509833E0,4.538764060E-2,1.509144623E-2,4.509030282E-2
2.385440833E0,7.280173898E-2,7.449966855E-3,2.724784240E-2
2.395372833E0,9.550012648E-2,2.123378217E-3,1.138632093E-2
2.405303833E0,1.212335899E-1,1.203039894E-3,5.305137485E-3
2.415234833E0,1.344146281E-1,-1.557620708E-2,-6.689473987E-3
2.425166833E0,1.253973395E-1,-3.231766820E-2,-1.303681824E-2
2.435097833E0,9.915348887E-2,-4.517674446E-2,-8.668436669E-3
2.445029833E0,7.147158682E-2,-2.976900712E-2,2.278010827E-3
2.454960833E0,4.203779623E-2,3.841417143E-3,2.037152648E-2
2.464892833E0,1.294393186E-2,3.315228969E-2,3.702304885E-2
2.474823833E0,-1.979617216E-2,3.629348800E-2,3.850775957E-2
2.484755833E0,-4.554200172E-2,2.115173452E-2,2.355997637E-2
2.494686833E0,-6.938315183E-2,2.125666291E-2,-2.243923955E-3
2.504617833E0,-8.338186145E-2,3.198163956E-2,-2.561681904E-2
2.514549833E0,-8.546365798E-2,2.833736874E-2,-3.775470704E-2
2.524480833E0,-7.069016993E-2,1.637457684E-2,-3.721756488E-2
2.534412833E0,-3.810346872E-2,-1.589776715E-3,-2.421015128E-2
2.544343833E0,-7.035024464E-3,-7.730402984E-3,-8.147162385E-3
2.554275833E0,2.598364465E-2,8.796642534E-3,6.459477358E-3
2.564206833E0,4.886779189E-2,2.476606891E-2,1.066848543E-2
2.574137833E0,6.207733601E-2,3.037788346E-2,5.155475345E-3
2.584069833E0,6.465949118E-2,2.930842899E-2,3.261516336E-3
2.594000833E0,4.851993173E-2,1.418034174E-2,-3.649652936E-3
2.603932833E0,3.058598936E-2,5.068530329E-3,-1.332393289E-2
2.613863833E0,6.545102224E-3,1.057011308E-3,-1.548295841E-2
2.623795833E0,-1.437100396E-2,-9.969240054E-3,-1.419774815E-2
2.633726833E0,-3.492235020E-2,-2.659242600E-2,-1.463024504E-2
2.643657833E0,-4.982068762E-2,-3.434607387E-2,-1.337559056E-2
2.653589833E0,-5.969116092E-2,-2.866155468E-2,-7.571763359E-3
2.663520833E0,-6.109333783E-2,-1.160640921E-2,1.929451246E-3
2.673452833E0,-6.093807518E-2,1.511523034E-3,5.936710164E-3
2.683383833E0,-6.246652454E-2,9.886879474E-3,4.606670700E-3
2.693315833E0,-5.872611329E-2,1.147172786E-2,3.807665780E-4
2.703246833E0,-5.482515693E-2,7.833743468E-3,-1.347943675E-2
2.713177833E0,-5.333991349E-2,4.123427439E-3,-2.784346044E-2
2.723109833E0,-4.995172098E-2,-1.493731141E-2,-4.346545041E-2
2.733040833E0,-4.032705724E-2,-3.771000355E-2,-4.896621034E-2
2.742972833E0,-2.213950828E-2,-5.641062185E-2,-4.144090414E-2
2.752903833E0,2.022819361E-3,-7.250703871E-2,-3.511456773E-2
2.762835833E0,1.656284928E-2,-8.810696006E-2,-3.504361212E-2
2.772766833E0,3.747105971E-2,-8.306053281E-2,-3.543642908E-2
2.782697833E0,5.937226117E-2,-7.289750129E-2,-4.733846337E-2
2.792629833E0,7.412084937E-2,-4.606055841E-2,-4.839041084E-2
2.802560833E0,8.032637089E-2,-7.188491523E-3,-5.372422561E-2
2.812492833E0,7.393132150E-2,3.903253376E-2,-4.778324440E-2
2.822423833E0,5.549493060E-2,7.277093083E-2,-4.085528105E-2
2.832355833E0,3.377791494E-2,7.247451693E-2,-3.513614461E-2
2.842286833E0,4.859185312E-3,6.056343392E-2,-3.418408707E-2
2.852217833E0,-2.736666240E-2,3.133737296E-2,-3.636894375E-2
2.862149833E0,-5.771693215E-2,6.826764438E-4,-3.076092899E-2
2.872080833E0,-7.683629543E-2,-4.254025407E-3,-1.537132170E-2
2.882012833E0,-7.577066869E-2,7.771773264E-3,4.528956953E-3
2.891943833E0,-5.764705688E-2,3.609209508E-2,1.846447960E-2
2.901876042E0,-2.817238495E-2,6.816139817E-2,1.958768629E-2
2.911807042E0,1.033958793E-2,6.319353729E-2,2.250730991E-2
2.921739042E0,5.555295199E-2,4.926532134E-2,1.988245919E-2
2.931670042E0,9.436479956E-2,4.617046192E-2,1.478729770E-2
2.941601042E0,1.183559224E-1,5.413882434E-2,1.107855234E-3
2.951533042E0,1.222705022E-1,3.989730403E-2,-1.356110256E-2
2.961464042E0,1.097427979E-1,6.107144989E-3,-1.756347343E-2
2.971396042E0,9.402135760E-2,-1.514487993E-2,-1.668303460E-2
2.981327042E0,7.686401904E-2,-1.093032025E-2,-4.680772312E-3
2.991259042E0,5.684263632E-2,-3.055618610E-3,6.654706784E-3
3.001190042E0,3.911119699E-2,1.137477253E-2,1.354832388E-2
3.011121042E0,1.858994365E-2,3.208218142E-2,1.511905529E-2
3.021053042E0,1.175473910E-3,4.092811793E-2,1.544816606E-2
3.030984042E0,-1.159651391E-2,3.761062026E-2,1.112372521E-2
3.040916042E0,-2.414765954E-2,2.323924564E-2,8.188582025E-3
3.050847042E0,-2.938689478E-2,2.192151360E-2,7.999763824E-3
3.060779042E0,-3.081711009E-2,2.436945774E-2,4.027423915E-3
3.070710042E0,-2.881228179E-2,2.329407260E-2,-6.382340565E-3
3.080641042E0,-2.671564184E-2,-1.110711950E-3,-1.772440225E-2
3.090573042E0,-1.289064065E-2,-2.583203837E-2,-2.484463155E-2
3.100504042E0,2.500729635E-3,-2.306726761E-2,-1.624378935E-2
3.110436042E0,1.527697872E-2,8.719423786E-3,-2.155668102E-3
3.120367042E0,2.978564985E-2,4.018415511E-2,1.033420302E-2
3.130299042E0,4.021139443E-2,5.457134917E-2,1.681207679E-2
3.140230042E0,3.698613122E-2,5.170262605E-2,6.882979535E-3
3.150161042E0,3.309924901E-2,2.344409190E-2,-1.000172738E-2
3.160093042E0,1.265824679E-2,6.004759576E-3,-2.360907942E-2
3.170024042E0,-5.194253288E-3,-1.964108087E-4,-3.170082718E-2
3.179956042E0,-2.144309692E-2,1.084369374E-3,-1.791758090E-2
3.189887042E0,-2.432650141E-2,5.269526970E-3,2.525643446E-3
3.199819042E0,-2.176168934E-2,5.077123642E-3,2.109084651E-2
3.209750042E0,-1.065630652E-2,1.434146240E-2,3.063987568E-2
3.219681042E0,1.070869621E-4,2.078443207E-2,3.271962702E-2
3.229613042E0,6.365515292E-3,1.475557033E-2,3.100828081E-2
3.239544042E0,1.481519267E-2,7.412701845E-3,2.067282051E-2
3.249476042E0,1.763015427E-2,7.136532106E-3,1.417656988E-2
3.259407042E0,2.008371800E-2,-7.509080227E-3,1.185096148E-2
