"Time (s)","X (m/s^2)","Y (m/s^2)","Z (m/s^2)"
8.762874990E-3,-4.148772583E0,5.508844299E0,6.004613342E0
1.869487495E-2,-3.992347870E0,5.520220642E0,5.969137115E0
2.862587501E-2,-3.811823273E0,5.591023407E0,6.081104279E0
3.855687496E-2,-3.591182098E0,5.670508118E0,6.156098328E0
4.848887504E-2,-3.353177032E0,5.580844574E0,6.472989349E0
5.841987499E-2,-3.197051697E0,5.208269348E0,7.182663574E0
6.835087505E-2,-3.198099518E0,4.903054047E0,7.824977875E0
7.828287501E-2,-3.221301270E0,4.710254974E0,8.286617889E0
8.821387496E-2,-3.294798431E0,4.519850922E0,8.614585876E0
9.814587503E-2,-3.368744659E0,4.453838196E0,8.802594910E0
1.080768750E-1,-3.384162598E0,4.501588898E0,8.829838257E0
1.180078750E-1,-3.243006134E0,4.586163025E0,8.727451172E0
1.279398750E-1,-3.026406555E0,4.713697815E0,8.496032410E0
1.378708750E-1,-2.772384796E0,4.973707123E0,8.310867462E0
1.478018750E-1,-2.466121674E0,5.180427246E0,8.101602631E0
1.577338750E-1,-2.154918823E0,5.262456665E0,7.931406555E0
1.676648750E-1,-1.853296051E0,5.152734833E0,7.942184143E0
1.775958750E-1,-1.597627716E0,4.956193542E0,8.123307495E0
1.875278750E-1,-1.434017944E0,4.777914276E0,8.335416412E0
1.974588750E-1,-1.326242065E0,4.698579254E0,8.453969879E0
2.073898750E-1,-1.238524475E0,4.696633301E0,8.456215210E0
2.173218750E-1,-1.212927704E0,4.744833069E0,8.453071747E0
2.272528750E-1,-1.180295563E0,4.803960114E0,8.451574860E0
2.371848749E-1,-1.183439026E0,4.819078674E0,8.425828400E0
2.471158750E-1,-1.248703308E0,4.819527740E0,8.418643341E0
2.570468750E-1,-1.349144440E0,4.789889374E0,8.435109100E0
2.669788750E-1,-1.484313354E0,4.727768555E0,8.464298401E0
2.769098750E-1,-1.621278534E0,4.640350342E0,8.448880463E0
2.868408751E-1,-1.743424530E0,4.524341583E0,8.343798981E0
2.967728750E-1,-1.805245972E0,4.455484772E0,8.211623840E0
3.067038750E-1,-1.827699280E0,4.407734070E0,8.171956329E0
3.166348750E-1,-1.859582977E0,4.392166443E0,8.180488586E0
3.265668750E-1,-1.897603912E0,4.392615509E0,8.228089600E0
3.364978750E-1,-1.861528931E0,4.432432709E0,8.311615906E0
3.464288750E-1,-1.797611847E0,4.460424500E0,8.369695129E0
3.563608750E-1,-1.719923401E0,4.431833954E0,8.422535248E0
3.662918750E-1,-1.655257874E0,4.389022980E0,8.505911865E0
3.762238750E-1,-1.641037445E0,4.350253601E0,8.569978638E0
3.861548750E-1,-1.603315887E0,4.339026947E0,8.558153229E0
3.960858750E-1,-1.635648651E0,4.329746246E0,8.512797546E0
4.060178749E-1,-1.694176941E0,4.304149475E0,8.605754242E0
4.159488750E-1,-1.618284760E0,4.241579590E0,8.716673584E0
4.258798750E-1,-1.484313354E0,4.149071960E0,8.808881836E0
4.358118750E-1,-1.351988525E0,4.115541687E0,8.898545380E0
4.457428750E-1,-1.199605408E0,4.126019897E0,8.973689117E0
4.556738749E-1,-1.082997894E0,4.086053009E0,9.042096863E0
4.656058750E-1,-1.021475830E0,4.029320984E0,9.076525269E0
4.755368750E-1,-1.094972992E0,3.910019073E0,9.052724762E0
4.854678750E-1,-1.219214630E0,3.853736115E0,9.063652039E0
4.954000000E-1,-1.289119263E0,3.882027283E0,9.116641846E0
5.053310000E-1,-1.368603973E0,3.880680084E0,9.182654572E0
5.152630000E-1,-1.392703857E0,3.837869110E0,9.184450836E0
5.251940000E-1,-1.355131989E0,3.795806580E0,9.168733521E0
5.351249999E-1,-1.283880157E0,3.833228760E0,9.181756439E0
5.450570000E-1,-1.181193695E0,3.842210083E0,9.207353210E0
5.549880000E-1,-1.063238983E0,3.796405334E0,9.222022705E0
5.649190000E-1,-9.936337280E-1,3.751049652E0,9.178163910E0
5.748510000E-1,-9.749226379E-1,3.717968445E0,9.105864258E0
5.847820000E-1,-9.886940002E-1,3.730242920E0,9.083111572E0
5.947130000E-1,-1.027164001E0,3.747307434E0,9.057065735E0
6.046450000E-1,-1.027613068E0,3.760779419E0,9.017098846E0
6.145760000E-1,-1.031055908E0,3.744762726E0,8.992699585E0
6.245070000E-1,-1.036444702E0,3.723955994E0,8.995693359E0
6.344390000E-1,-1.045126648E0,3.690575409E0,9.010512543E0
6.443700000E-1,-1.116977234E0,3.661086731E0,9.067693634E0
6.543020000E-1,-1.165626068E0,3.647015991E0,9.163793793E0
6.642330000E-1,-1.146316223E0,3.674409027E0,9.178912354E0
6.741640000E-1,-1.068627777E0,3.726201324E0,9.110055542E0
6.840960000E-1,-9.704319763E-1,3.782334595E0,8.983269196E0
6.940270000E-1,-9.175918579E-1,3.844904480E0,8.900790710E0
7.039579999E-1,-9.101074219E-1,3.863016815E0,8.883875885E0
7.138900000E-1,-9.165440369E-1,3.833827515E0,8.846753082E0
7.238210000E-1,-1.028211823E0,3.749253387E0,8.797954559E0
7.337520000E-1,-1.197509766E0,3.720513153E0,8.868757324E0
7.436840000E-1,-1.280287628E0,3.694617004E0,8.923992462E0
7.536150001E-1,-1.320553894E0,3.642375641E0,8.951086121E0
7.635470000E-1,-1.309327240E0,3.604654083E0,9.023385773E0
7.734780000E-1,-1.235680389E0,3.615132294E0,9.130113831E0
7.834090000E-1,-1.118923187E0,3.638932800E0,9.202413483E0
7.933410000E-1,-1.045426025E0,3.620371399E0,9.228609009E0
8.032720000E-1,-1.031355286E0,3.545527039E0,9.194779358E0
8.132030000E-1,-1.053808594E0,3.497327271E0,9.143286438E0
8.231350000E-1,-1.105002136E0,3.551514587E0,9.115594025E0
8.330660000E-1,-1.092577972E0,3.653153229E0,9.076375580E0
8.429970000E-1,-9.946815491E-1,3.655847626E0,8.962013397E0
8.529290000E-1,-9.291178894E-1,3.584745483E0,8.917855225E0
8.628600000E-1,-9.020242310E-1,3.559897156E0,8.922495575E0
8.727909999E-1,-9.117539978E-1,3.614533539E0,8.951684875E0
8.827230000E-1,-9.457333374E-1,3.679348755E0,8.978628845E0
8.926540000E-1,-9.557624817E-1,3.744014282E0,9.014853516E0
9.025850000E-1,-9.189390564E-1,3.709585876E0,8.970845032E0
9.125170000E-1,-9.065148926E-1,3.606749725E0,8.915609894E0
9.224479999E-1,-9.410929871E-1,3.568130035E0,8.963210907E0
9.323800000E-1,-9.653425598E-1,3.572471008E0,9.083410950E0
9.423110000E-1,-9.548643494E-1,3.596121826E0,9.192983093E0
9.522420000E-1,-9.018745422E-1,3.617078247E0,9.228908386E0
9.621740000E-1,-8.881031799E-1,3.586242371E0,9.246871033E0
9.721050001E-1,-8.888516235E-1,3.533851318E0,9.241033173E0
9.820360000E-1,-8.725355530E-1,3.511996765E0,9.200168152E0
9.919680000E-1,-8.698411560E-1,3.544928284E0,9.121880951E0
1.001899000E0,-8.717871094E-1,3.633993073E0,9.079818420E0
1.011830000E0,-8.693920898E-1,3.705544281E0,9.028924255E0
1.021762000E0,-8.659492493E-1,3.736380157E0,8.965755615E0
1.031693000E0,-8.580157471E-1,3.729045410E0,8.925489349E0
1.041625000E0,-8.800199890E-1,3.672163696E0,8.941056976E0
1.051556000E0,-9.093589783E-1,3.622766418E0,8.970994720E0
1.061487000E0,-9.517208862E-1,3.587439880E0,9.033714294E0
1.071419000E0,-9.782157898E-1,3.593128052E0,9.075477448E0
1.081350000E0,-9.792636108E-1,3.596570892E0,9.078171844E0
1.091281000E0,-9.698332214E-1,3.606600037E0,9.090596008E0
1.101213000E0,-9.623487854E-1,3.581003265E0,9.109456787E0
1.111144000E0,-9.732760620E-1,3.551813965E0,9.136999512E0
1.121075000E0,-9.957293701E-1,3.509002991E0,9.136251068E0
1.131007000E0,-1.023122406E0,3.512296143E0,9.112450562E0
1.140938000E0,-1.012344818E0,3.554957428E0,9.087302856E0
1.150869000E0,-1.004111938E0,3.597319336E0,9.098529510E0
1.160801000E0,-9.996212769E-1,3.587439880E0,9.090596008E0
1.170732000E0,-9.958790588E-1,3.544628906E0,9.081464996E0
1.180664000E0,-9.744735718E-1,3.496279449E0,9.028325500E0
1.190595000E0,-9.797126770E-1,3.471730499E0,8.978778534E0
1.200526000E0,-1.006506958E0,3.510948944E0,8.995094604E0
1.210458000E0,-1.040635986E0,3.562292175E0,9.058862000E0
1.220389000E0,-9.836045837E-1,3.581751709E0,9.091643829E0
1.230320000E0,-9.243278503E-1,3.576213226E0,9.117090912E0
1.240252000E0,-9.346563721E-1,3.554208984E0,9.122180328E0
1.250183000E0,-9.581575012E-1,3.554807739E0,9.130263519E0
1.260114000E0,-9.930349731E-1,3.578907623E0,9.114845581E0
1.270046000E0,-9.997709656E-1,3.592379608E0,9.052126007E0
1.279977000E0,-9.845027161E-1,3.560196533E0,9.012159119E0
1.289908000E0,-9.851014709E-1,3.509601746E0,9.001980286E0
1.299840000E0,-9.874964905E-1,3.497177582E0,8.999136200E0
1.309771000E0,-9.861492920E-1,3.547323303E0,8.966054993E0
1.319703000E0,-9.737251282E-1,3.608246613E0,8.990454254E0
1.329634000E0,-9.497749329E-1,3.649560699E0,9.052425385E0
1.339565000E0,-9.346563721E-1,3.623963928E0,9.099577332E0
1.349497000E0,-9.153465271E-1,3.553011475E0,9.115594025E0
1.359428000E0,-9.243278503E-1,3.458408203E0,9.090296631E0
1.369359000E0,-9.696835327E-1,3.429667969E0,9.095835114E0
1.379291000E0,-9.969268799E-1,3.479664001E0,9.143436127E0
1.389222000E0,-9.842033386E-1,3.517984314E0,9.153614960E0
1.399153000E0,-9.327104187E-1,3.494183807E0,9.120533752E0
1.409085000E0,-8.919950867E-1,3.478017426E0,9.034462738E0
1.419016000E0,-8.866062927E-1,3.479364624E0,8.909921722E0
1.428947000E0,-9.095086670E-1,3.543431396E0,8.826694794E0
1.438879000E0,-9.731263733E-1,3.643722839E0,8.823850708E0
1.448810000E0,-1.024319916E0,3.710783386E0,8.918603668E0
1.458742000E0,-1.018182678E0,3.703448639E0,9.017547913E0
1.468673000E0,-9.598040771E-1,3.659140778E0,9.114097137E0
1.478604000E0,-9.159452820E-1,3.578159180E0,9.147777100E0
1.488535750E0,-8.960366821E-1,3.550017700E0,9.172775116E0
1.498466750E0,-8.701405334E-1,3.536396027E0,9.166039124E0
1.508397750E0,-9.213340759E-1,3.526666260E0,9.177415466E0
1.518329750E0,-9.731263733E-1,3.512745209E0,9.219777374E0
1.528260750E0,-9.797126770E-1,3.487896881E0,9.237590332E0
1.538191750E0,-9.879455566E-1,3.459905090E0,9.241931305E0
1.548123750E0,-9.786648560E-1,3.469185791E0,9.232500916E0
1.558054750E0,-8.952882385E-1,3.535048828E0,9.227261810E0
1.567985750E0,-8.836125183E-1,3.580254822E0,9.175319824E0
1.577917750E0,-9.475296021E-1,3.576512604E0,9.081315308E0
1.587848750E0,-9.921368408E-1,3.519930267E0,8.981772308E0
1.597779750E0,-1.053658905E0,3.445534973E0,8.956923981E0
1.607711750E0,-1.062939606E0,3.438649292E0,8.974886627E0
1.617642750E0,-1.088835754E0,3.472928009E0,9.009315033E0
1.627574750E0,-1.074465637E0,3.514242096E0,9.026678925E0
1.637505750E0,-1.045426025E0,3.548221436E0,9.033414917E0
1.647436750E0,-1.022523651E0,3.592379608E0,9.015152893E0
1.657368750E0,-1.032552795E0,3.601510620E0,9.032367096E0
1.667299750E0,-1.061442719E0,3.568579102E0,9.059460754E0
1.677230750E0,-1.096320190E0,3.534001007E0,9.062753906E0
1.687162750E0,-1.117276611E0,3.529210968E0,9.067394257E0
1.697093750E0,-1.113085327E0,3.528163147E0,9.076076202E0
1.707024750E0,-1.092278595E0,3.524570618E0,9.083560638E0
1.716956750E0,-1.067430267E0,3.539389801E0,9.065747681E0
1.726887750E0,-1.049916687E0,3.554508362E0,9.041348419E0
1.736818750E0,-1.022074585E0,3.562591553E0,9.022787018E0
1.746750750E0,-1.008303223E0,3.570824432E0,9.043893127E0
1.756681750E0,-1.009650421E0,3.587739258E0,9.072333984E0
1.766613750E0,-1.012943573E0,3.556454315E0,9.119485931E0
1.776544750E0,-1.039588165E0,3.518134003E0,9.125174103E0
1.786475750E0,-1.073268127E0,3.463198242E0,9.112450562E0
1.796407750E0,-1.101858673E0,3.450923767E0,9.112450562E0
1.806338750E0,-1.101259918E0,3.469784546E0,9.175170135E0
1.816269750E0,-1.043330383E0,3.472478943E0,9.231303406E0
1.826201750E0,-9.512718201E-1,3.427871704E0,9.196425934E0
1.836132750E0,-9.174421692E-1,3.409160614E0,9.143136749E0
1.846063750E0,-9.301657104E-1,3.436853027E0,9.116492157E0
1.855995750E0,-9.436376953E-1,3.475323029E0,9.066496124E0
1.865926750E0,-9.292675781E-1,3.520079956E0,9.079519043E0
1.875857750E0,-9.166937256E-1,3.552113342E0,9.097781067E0
1.885789750E0,-8.990304565E-1,3.535348206E0,9.105265503E0
1.895720750E0,-8.824150085E-1,3.500620422E0,9.090745697E0
1.905652750E0,-8.671467590E-1,3.490591278E0,9.040450287E0
1.915583750E0,-8.804690552E-1,3.484004974E0,8.999585266E0
1.925514750E0,-9.319619751E-1,3.492986298E0,9.030570831E0
1.935446750E0,-9.574090576E-1,3.472029877E0,9.066496124E0
1.945377750E0,-9.529183960E-1,3.404819641E0,9.088350677E0
1.955308750E0,-9.442364502E-1,3.358266449E0,9.134005737E0
1.965240750E0,-8.969348145E-1,3.395988007E0,9.179511108E0
1.975171750E0,-8.541238403E-1,3.484753418E0,9.191336517E0
1.985102750E0,-8.445437622E-1,3.501518555E0,9.129814453E0
1.995034750E0,-8.066725159E-1,3.486849060E0,9.017847290E0
2.004965750E0,-7.830216980E-1,3.466491394E0,8.889264679E0
2.014896750E0,-7.908055115E-1,3.498524780E0,8.853788452E0
2.024828750E0,-8.394543457E-1,3.513493652E0,8.920848999E0
2.034759750E0,-8.975335693E-1,3.496728516E0,9.038354645E0
2.044690750E0,-9.500743103E-1,3.472478943E0,9.145681458E0
2.054622750E0,-9.641450500E-1,3.444038086E0,9.183552704E0
2.064553750E0,-9.577084351E-1,3.436104584E0,9.173074493E0
2.074485750E0,-9.440867615E-1,3.443888397E0,9.180109863E0
2.084416750E0,-9.166937256E-1,3.441792755E0,9.163644104E0
2.094347750E0,-8.689430237E-1,3.447929993E0,9.173523560E0
2.104279750E0,-8.062234497E-1,3.447780304E0,9.202862549E0
2.114210750E0,-7.794291687E-1,3.451821899E0,9.206904144E0
2.124141750E0,-7.979905701E-1,3.404071198E0,9.123377838E0
2.134073750E0,-8.599617004E-1,3.402723999E0,9.016350403E0
2.144004750E0,-9.256750488E-1,3.452420654E0,8.913963318E0
2.153935750E0,-9.514215088E-1,3.487597504E0,8.833131409E0
2.163867750E0,-9.366023254E-1,3.523223419E0,8.841963043E0
2.173798750E0,-9.406439209E-1,3.521876221E0,8.893905029E0
2.183729750E0,-9.518705750E-1,3.486998749E0,8.971743164E0
2.193661750E0,-9.765692139E-1,3.426973572E0,9.027577057E0
2.203592750E0,-9.891430664E-1,3.396736450E0,9.101672974E0
2.213523750E0,-9.991722107E-1,3.404071198E0,9.209149475E0
2.223455750E0,-9.728269958E-1,3.437451782E0,9.283694458E0
2.233386750E0,-9.252259827E-1,3.438050537E0,9.250164185E0
2.243318750E0,-9.101074219E-1,3.405568085E0,9.164542236E0
2.253249750E0,-9.300160217E-1,3.399879913E0,9.095086670E0
2.263180750E0,-9.668394470E-1,3.387455750E0,9.091194763E0
2.273112750E0,-9.746232605E-1,3.385360107E0,9.139993286E0
2.283043750E0,-9.536668396E-1,3.412453766E0,9.184450836E0
2.292974750E0,-9.261241150E-1,3.414399719E0,9.189689941E0
2.302906750E0,-9.107061768E-1,3.383414154E0,9.126521301E0
2.312837750E0,-9.469308472E-1,3.350332947E0,9.031768341E0
2.322768750E0,-9.969268799E-1,3.381168823E0,8.986861725E0
2.332700750E0,-1.005309448E0,3.448678436E0,9.013656006E0
2.342631750E0,-9.818083191E-1,3.470682678E0,9.092541962E0
2.352562750E0,-9.580078125E-1,3.448229370E0,9.188642120E0
2.362494750E0,-9.315129089E-1,3.437900848E0,9.253307648E0
2.372425750E0,-9.225315857E-1,3.431015167E0,9.266330566E0
2.382357750E0,-9.279203796E-1,3.419638824E0,9.219028931E0
2.392288750E0,-9.157955933E-1,3.408112793E0,9.153465271E0
2.402219750E0,-9.190887451E-1,3.422183533E0,9.131610718E0
2.412151750E0,-9.169931030E-1,3.423530731E0,9.111851807E0
2.422082750E0,-8.657995605E-1,3.453318787E0,9.129964142E0
2.432013750E0,-8.325686646E-1,3.451672211E0,9.142088928E0
2.441945750E0,-8.470884705E-1,3.393742676E0,9.114695892E0
2.451876750E0,-9.192384338E-1,3.366798706E0,9.116342468E0
2.461807750E0,-9.779164124E-1,3.365301819E0,9.131161652E0
2.471739750E0,-9.598040771E-1,3.391197968E0,9.137149200E0
2.481670750E0,-8.909472656E-1,3.421584778E0,9.157955933E0
2.491602250E0,-8.235873413E-1,3.438948669E0,9.184301147E0
2.501534250E0,-7.905061340E-1,3.429218903E0,9.188193054E0
2.511465250E0,-7.797285461E-1,3.435805206E0,9.190438385E0
2.521396250E0,-7.914042664E-1,3.447331238E0,9.169631653E0
2.531328250E0,-8.316705322E-1,3.409010925E0,9.134754181E0
2.541259250E0,-8.702902222E-1,3.378324738E0,9.119336243E0
2.551191250E0,-9.258247375E-1,3.381019135E0,9.154064026E0
2.561122250E0,-9.409432983E-1,3.374283142E0,9.199868774E0
2.571053250E0,-9.080117798E-1,3.384012909E0,9.222621460E0
2.580985250E0,-9.063652039E-1,3.338956604E0,9.216933289E0
2.590916250E0,-9.252259827E-1,3.300037537E0,9.221573639E0
2.600847250E0,-9.403445435E-1,3.270848236E0,9.219477997E0
2.610779250E0,-9.232800293E-1,3.292553101E0,9.245374146E0
2.620710250E0,-8.783734131E-1,3.331621857E0,9.255852356E0
2.630641250E0,-8.511300659E-1,3.360661469E0,9.256002045E0
2.640573250E0,-8.710386658E-1,3.355721741E0,9.232949982E0
2.650504250E0,-9.048683167E-1,3.336860962E0,9.189091187E0
2.660435250E0,-9.289682007E-1,3.320844269E0,9.145831146E0
2.670367250E0,-9.425898743E-1,3.289110260E0,9.085506592E0
2.680298250E0,-9.388476562E-1,3.276985474E0,9.048832855E0
2.690229250E0,-9.172924805E-1,3.299438782E0,9.040599976E0
2.700161250E0,-9.107061768E-1,3.343147888E0,9.051377563E0
2.710092250E0,-9.138496399E-1,3.357518005E0,9.087153168E0
2.720023250E0,-9.038204956E-1,3.347039795E0,9.119485931E0
2.729955250E0,-9.012757874E-1,3.312611389E0,9.116192780E0
2.739886250E0,-9.145980835E-1,3.286864929E0,9.110654297E0
2.749818250E0,-9.514215088E-1,3.284020844E0,9.096882935E0
2.759749250E0,-9.580078125E-1,3.294199677E0,9.140592041E0
2.769680250E0,-9.276210022E-1,3.293451233E0,9.180708618E0
2.779612250E0,-9.283694458E-1,3.272644501E0,9.177864532E0
2.789543250E0,-9.431886292E-1,3.261417847E0,9.173822937E0
2.799474250E0,-9.654922485E-1,3.265609131E0,9.178612976E0
2.809406250E0,-9.592053223E-1,3.282673645E0,9.210646362E0
2.819337250E0,-9.295669556E-1,3.302432556E0,9.252259827E0
2.829268250E0,-9.117539978E-1,3.276536407E0,9.261390839E0
2.839200250E0,-9.366023254E-1,3.243006134E0,9.241332550E0
2.849131250E0,-9.669891357E-1,3.237916718E0,9.245374146E0
2.859062250E0,-9.758207703E-1,3.228336639E0,9.207353210E0
2.868994250E0,-9.357041931E-1,3.233126678E0,9.149124298E0
2.878925250E0,-9.153465271E-1,3.262465668E0,9.097930756E0
2.888856250E0,-9.081614685E-1,3.297043762E0,9.065747681E0
2.898788250E0,-9.205856323E-1,3.276386719E0,9.067693634E0
2.908719250E0,-9.587562561E-1,3.264561310E0,9.108408966E0
2.918651250E0,-9.488768005E-1,3.279829559E0,9.184750214E0
2.928582250E0,-8.887019348E-1,3.268902283E0,9.253457336E0
2.938513250E0,-8.767268372E-1,3.224594421E0,9.294472046E0
2.948445250E0,-8.431965637E-1,3.200793915E0,9.285041656E0
2.958376250E0,-8.370593262E-1,3.208278351E0,9.285490723E0
2.968307250E0,-8.460406494E-1,3.242108002E0,9.314230957E0
2.978239250E0,-8.461903381E-1,3.265609131E0,9.317224731E0
2.988170250E0,-8.343649292E-1,3.263663177E0,9.286089478E0
2.998101250E0,-8.705895996E-1,3.251089325E0,9.230704651E0
3.008033250E0,-8.749305725E-1,3.248993683E0,9.164093170E0
3.017964250E0,-8.861572266E-1,3.250340881E0,9.124126282E0
3.027895250E0,-8.750802612E-1,3.265758820E0,9.106313324E0
3.037827250E0,-8.711883545E-1,3.276386719E0,9.085656281E0
3.047758250E0,-8.641529846E-1,3.291804657E0,9.065747681E0
3.057689250E0,-8.738827515E-1,3.293600922E0,9.041797485E0
3.067621250E0,-9.071136475E-1,3.272345123E0,9.017098846E0
3.077552250E0,-9.747729492E-1,3.277584229E0,9.040300598E0
3.087484250E0,-1.021326141E0,3.299438782E0,9.099277954E0
3.097415250E0,-1.021625519E0,3.295846252E0,9.176966400E0
3.107346250E0,-1.009650421E0,3.297941895E0,9.243727570E0
3.117278250E0,-9.767189026E-1,3.304528198E0,9.281898193E0
3.127209250E0,-9.857002258E-1,3.281625824E0,9.288783875E0
3.137140250E0,-1.007854156E0,3.257076874E0,9.269024963E0
3.147072250E0,-1.003363495E0,3.269201660E0,9.288334808E0
3.157003250E0,-1.019230499E0,3.264112244E0,9.321865082E0
3.166934250E0,-1.030606842E0,3.244203644E0,9.343120880E0
3.176866250E0,-1.026565247E0,3.230881348E0,9.311536560E0
3.186797250E0,-1.025517426E0,3.223845978E0,9.255852356E0
3.196728250E0,-1.038839722E0,3.260220337E0,9.196425934E0
3.206660250E0,-1.037941589E0,3.301534424E0,9.161249084E0
3.216591250E0,-9.933343506E-1,3.317850494E0,9.164542236E0
3.226522250E0,-9.448352051E-1,3.345692596E0,9.191785583E0
3.236454250E0,-9.351054382E-1,3.345093842E0,9.182504883E0
3.246385250E0,-8.928932190E-1,3.336711273E0,9.124126282E0
3.256316250E0,-8.961863708E-1,3.344644775E0,9.115743713E0
3.266248250E0,-9.029223633E-1,3.378773804E0,9.136101379E0
3.276179250E0,-8.884025574E-1,3.378624115E0,9.132059784E0
3.286111250E0,-8.681945801E-1,3.364553375E0,9.137747955E0
3.296042250E0,-8.882528687E-1,3.352428589E0,9.127120056E0
3.305973250E0,-9.264234924E-1,3.341950378E0,9.112300873E0
3.315905250E0,-9.593550110E-1,3.331172791E0,9.156758423E0
3.325836250E0,-9.768685913E-1,3.296894073E0,9.198671265E0
3.335767250E0,-9.720785522E-1,3.264112244E0,9.212592316E0
3.345699250E0,-9.647438049E-1,3.255729675E0,9.167386322E0
3.355630250E0,-9.831555176E-1,3.253035278E0,9.072932739E0
3.365561250E0,-1.000070343E0,3.287613373E0,9.000333710E0
3.375493250E0,-1.007854156E0,3.328927460E0,8.997789001E0
3.385424250E0,-9.770182800E-1,3.340453491E0,9.050030365E0
3.395355250E0,-9.400451660E-1,3.316054230E0,9.098080444E0
3.405287250E0,-9.315129089E-1,3.272345123E0,9.104067993E0
3.415218250E0,-9.568103027E-1,3.283272400E0,9.085955658E0
